# Wavelength	TS04 A/W	
370	0.2790	
380	0.2890	
390	0.3001	
400	0.3103	
401	0.3113	
402	0.3122	
403	0.3132	
404	0.3141	
405	0.3151	
406	0.3160	
407	0.3170	
408	0.3180	
409	0.3190	
410	0.3200	
411	0.3209	
412	0.3219	
413	0.3228	
414	0.3237	
415	0.3246	
416	0.3256	
417	0.3266	
418	0.3275	
419	0.3285	
420	0.3295	
421	0.3304	
422	0.3313	
423	0.3322	
424	0.3331	
425	0.3340	
426	0.3349	
427	0.3358	
428	0.3367	
429	0.3376	
430	0.3385	
431	0.3394	
432	0.3403	
433	0.3412	
434	0.3421	
435	0.3430	
436	0.3439	
437	0.3448	
438	0.3457	
439	0.3466	
440	0.3474	
441	0.3483	
442	0.3492	
443	0.3501	
444	0.3509	
445	0.3518	
446	0.3527	
447	0.3535	
448	0.3544	
449	0.3552	
450	0.3561	
451	0.3569	
452	0.3578	
453	0.3587	
454	0.3596	
455	0.3605	
456	0.3614	
457	0.3622	
458	0.3631	
459	0.3639	
460	0.3648	
461	0.3657	
462	0.3665	
463	0.3674	
464	0.3683	
465	0.3691	
466	0.3700	
467	0.3708	
468	0.3716	
469	0.3725	
470	0.3734	
471	0.3743	
472	0.3752	
473	0.3761	
474	0.3771	
475	0.3780	
476	0.3788	
477	0.3797	
478	0.3805	
479	0.3814	
480	0.3822	
481	0.3831	
482	0.3839	
483	0.3848	
484	0.3856	
485	0.3865	
486	0.3873	
487	0.3881	
488	0.3890	
489	0.3898	
490	0.3906	
491	0.3914	
492	0.3923	
493	0.3931	
494	0.3940	
495	0.3948	
496	0.3956	
497	0.3965	
498	0.3973	
499	0.3982	
500	0.3990	
501	0.3998	
502	0.4007	
503	0.4015	
504	0.4024	
505	0.4032	
506	0.4040	
507	0.4048	
508	0.4057	
509	0.4065	
510	0.4073	
511	0.4081	
512	0.4090	
513	0.4098	
514	0.4107	
515	0.4115	
516	0.4123	
517	0.4132	
518	0.4140	
519	0.4149	
520	0.4157	
521	0.4165	
522	0.4173	
523	0.4182	
524	0.4190	
525	0.4198	
526	0.4206	
527	0.4215	
528	0.4223	
529	0.4232	
530	0.4240	
531	0.4248	
532	0.4256	
533	0.4265	
534	0.4273	
535	0.4281	
536	0.4289	
537	0.4297	
538	0.4306	
539	0.4314	
540	0.4322	
541	0.4330	
542	0.4338	
543	0.4347	
544	0.4355	
545	0.4363	
546	0.4371	
547	0.4379	
548	0.4388	
549	0.4396	
550	0.4404	
551	0.4412	
552	0.4421	
553	0.4429	
554	0.4438	
555	0.4446	
556	0.4454	
557	0.4462	
558	0.4471	
559	0.4479	
560	0.4487	
561	0.4495	
562	0.4503	
563	0.4511	
564	0.4519	
565	0.4527	
566	0.4535	
567	0.4543	
568	0.4552	
569	0.4560	
570	0.4568	
571	0.4576	
572	0.4585	
573	0.4593	
574	0.4602	
575	0.4610	
576	0.4618	
577	0.4626	
578	0.4635	
579	0.4643	
580	0.4651	
581	0.4659	
582	0.4667	
583	0.4675	
584	0.4683	
585	0.4691	
586	0.4699	
587	0.4707	
588	0.4716	
589	0.4724	
590	0.4732	
591	0.4740	
592	0.4748	
593	0.4757	
594	0.4765	
595	0.4773	
596	0.4781	
597	0.4789	
598	0.4798	
599	0.4806	
600	0.4814	
601	0.4822	
602	0.4830	
603	0.4839	
604	0.4847	
605	0.4855	
606	0.4863	
607	0.4871	
608	0.4879	
609	0.4887	
610	0.4895	
611	0.4903	
612	0.4911	
613	0.4919	
614	0.4927	
615	0.4935	
616	0.4943	
617	0.4951	
618	0.4959	
619	0.4967	
620	0.4975	
621	0.4983	
622	0.4991	
623	0.4999	
624	0.5007	
625	0.5015	
626	0.5023	
627	0.5031	
628	0.5040	
629	0.5048	
630	0.5056	
631	0.5064	
632	0.5072	
633	0.5081	
634	0.5089	
635	0.5097	
636	0.5105	
637	0.5113	
638	0.5121	
639	0.5129	
640	0.5137	
641	0.5145	
642	0.5153	
643	0.5161	
644	0.5169	
645	0.5177	
646	0.5185	
647	0.5194	
648	0.5202	
649	0.5211	
650	0.5219	
651	0.5227	
652	0.5236	
653	0.5244	
654	0.5253	
655	0.5261	
656	0.5269	
657	0.5277	
658	0.5286	
659	0.5294	
660	0.5302	
661	0.5310	
662	0.5318	
663	0.5326	
664	0.5334	
665	0.5342	
666	0.5350	
667	0.5358	
668	0.5367	
669	0.5375	
670	0.5383	
671	0.5391	
672	0.5399	
673	0.5407	
674	0.5415	
675	0.5423	
676	0.5431	
677	0.5439	
678	0.5448	
679	0.5456	
680	0.5464	
681	0.5472	
682	0.5480	
683	0.5488	
684	0.5496	
685	0.5504	
686	0.5512	
687	0.5520	
688	0.5528	
689	0.5536	
690	0.5544	
691	0.5552	
692	0.5560	
693	0.5569	
694	0.5577	
695	0.5585	
696	0.5593	
697	0.5601	
698	0.5609	
699	0.5617	
700	0.5625	
701	0.5633	
702	0.5641	
703	0.5650	
704	0.5658	
705	0.5666	
706	0.5674	
707	0.5682	
708	0.5690	
709	0.5698	
710	0.5706	
711	0.5714	
712	0.5722	
713	0.5730	
714	0.5738	
715	0.5746	
716	0.5754	
717	0.5762	
718	0.5770	
719	0.5778	
720	0.5786	
721	0.5794	
722	0.5802	
723	0.5811	
724	0.5819	
725	0.5827	
726	0.5835	
727	0.5843	
728	0.5851	
729	0.5859	
730	0.5867	
731	0.5875	
732	0.5883	
733	0.5891	
734	0.5899	
735	0.5907	
736	0.5915	
737	0.5923	
738	0.5932	
739	0.5940	
740	0.5948	
741	0.5956	
742	0.5964	
743	0.5973	
744	0.5981	
745	0.5989	
746	0.5997	
747	0.6005	
748	0.6013	
749	0.6021	
750	0.6029	
751	0.6037	
752	0.6045	
753	0.6053	
754	0.6061	
755	0.6069	
756	0.6076	
757	0.6082	
758	0.6089	
759	0.6095	
760	0.6102	
761	0.6111	
762	0.6120	
763	0.6128	
764	0.6137	
765	0.6146	
766	0.6155	
767	0.6163	
768	0.6172	
769	0.6180	
770	0.6189	
771	0.6197	
772	0.6205	
773	0.6214	
774	0.6222	
775	0.6230	
776	0.6238	
777	0.6246	
778	0.6254	
779	0.6262	
780	0.6270	
781	0.6278	
782	0.6286	
783	0.6295	
784	0.6303	
785	0.6311	
786	0.6319	
787	0.6327	
788	0.6335	
789	0.6343	
790	0.6351	
791	0.6359	
792	0.6367	
793	0.6375	
794	0.6383	
795	0.6391	
796	0.6399	
797	0.6407	
798	0.6414	
799	0.6422	
800	0.6430	
801	0.6438	
802	0.6446	
803	0.6453	
804	0.6461	
805	0.6469	
806	0.6477	
807	0.6486	
808	0.6494	
809	0.6503	
810	0.6511	
811	0.6519	
812	0.6527	
813	0.6534	
814	0.6542	
815	0.6550	
816	0.6558	
817	0.6566	
818	0.6574	
819	0.6582	
820	0.6590	
821	0.6598	
822	0.6606	
823	0.6615	
824	0.6623	
825	0.6631	
826	0.6639	
827	0.6647	
828	0.6655	
829	0.6663	
830	0.6671	
831	0.6679	
832	0.6687	
833	0.6696	
834	0.6704	
835	0.6712	
836	0.6720	
837	0.6728	
838	0.6735	
839	0.6743	
840	0.6751	
841	0.6759	
842	0.6767	
843	0.6776	
844	0.6784	
845	0.6792	
846	0.6800	
847	0.6808	
848	0.6815	
849	0.6823	
850	0.6831	
851	0.6839	
852	0.6847	
853	0.6855	
854	0.6863	
855	0.6871	
856	0.6879	
857	0.6887	
858	0.6896	
859	0.6904	
860	0.6912	
861	0.6920	
862	0.6928	
863	0.6935	
864	0.6943	
865	0.6951	
866	0.6959	
867	0.6967	
868	0.6976	
869	0.6984	
870	0.6992	
871	0.7000	
872	0.7008	
873	0.7015	
874	0.7023	
875	0.7031	
876	0.7039	
877	0.7047	
878	0.7056	
879	0.7064	
880	0.7072	
881	0.7080	
882	0.7088	
883	0.7095	
884	0.7103	
885	0.7111	
886	0.7119	
887	0.7127	
888	0.7136	
889	0.7144	
890	0.7152	
891	0.7160	
892	0.7168	
893	0.7175	
894	0.7183	
895	0.7191	
896	0.7199	
897	0.7206	
898	0.7214	
899	0.7221	
900	0.7229	
901	0.7237	
902	0.7246	
903	0.7254	
904	0.7263	
905	0.7271	
906	0.7279	
907	0.7287	
908	0.7294	
909	0.7302	
910	0.7310	
911	0.7318	
912	0.7326	
913	0.7334	
914	0.7342	
915	0.7350	
916	0.7358	
917	0.7366	
918	0.7374	
919	0.7382	
920	0.7390	
921	0.7397	
922	0.7405	
923	0.7412	
924	0.7420	
925	0.7427	
926	0.7434	
927	0.7441	
928	0.7447	
929	0.7454	
930	0.7461	
931	0.7465	
932	0.7469	
933	0.7472	
934	0.7476	
935	0.7480	
936	0.7491	
937	0.7501	
938	0.7512	
939	0.7522	
940	0.7533	
941	0.7538	
942	0.7543	
943	0.7548	
944	0.7553	
945	0.7558	
946	0.7565	
947	0.7572	
948	0.7578	
949	0.7585	
950	0.7592	
951	0.7598	
952	0.7604	
953	0.7610	
954	0.7616	
955	0.7622	
956	0.7627	
957	0.7633	
958	0.7638	
959	0.7644	
960	0.7649	
961	0.7653	
962	0.7656	
963	0.7660	
964	0.7663	
965	0.7667	
966	0.7669	
967	0.7671	
968	0.7672	
969	0.7674	
970	0.7676	
971	0.7676	
972	0.7676	
973	0.7675	
974	0.7675	
975	0.7675	
976	0.7673	
977	0.7671	
978	0.7668	
979	0.7666	
980	0.7664	
981	0.7659	
982	0.7654	
983	0.7649	
984	0.7644	
985	0.7639	
986	0.7631	
987	0.7623	
988	0.7615	
989	0.7607	
990	0.7599	
991	0.7588	
992	0.7576	
993	0.7565	
994	0.7553	
995	0.7542	
996	0.7528	
997	0.7513	
998	0.7499	
999	0.7484	
1000 0.7470	
